1,1451,1,"1"
2,1451,2,"1"
3,1451,3,"1"
4,1451,4,"1"
5,1451,5,"0"
6,1451,6,"1"
7,1451,7,"1"
8,1451,8,"0"
9,1451,9,"0"
10,1451,10,"0"
11,1451,11,"0"
12,1451,12,"1"
13,1451,13,"0"
14,1451,14,"0"
15,1451,15,"0"
16,1451,16,"1"
17,1451,17,"0"
18,1451,18,"1"
19,1451,19,"1"
20,1451,21,"0"
21,1451,22,"0"
22,1451,23,"1"
23,1451,24,"0"
24,1451,797,"1"
25,1451,25,"0"
26,1451,26,"0"
27,1451,27,"0"
28,1451,28,"0"
29,1451,29,"0"
30,1451,30,"0"
31,1451,31,"1"
32,1451,32,"1"
33,1451,33,"1"
34,1451,34,"1"
35,1451,35,"1"
36,1451,36,"0"
37,1451,37,"0"
38,1451,38,"0"
39,1451,39,"0"
40,1451,40,"0"
41,1451,41,"0"
42,1451,42,"0"
43,1451,43,"0"
44,1451,44,"0"
45,1451,45,"0"
46,1451,46,"0"
47,1451,47,"1"
48,1451,48,"1"
49,1451,49,"0"
50,1451,50,"1"
51,1451,51,"1"
52,1451,52,"0"
53,1451,53,"0"
54,1451,54,"0"
55,1451,55,"0"
56,1451,56,"0"
57,1451,57,"0"
58,1451,58,"0"
59,1451,59,"0"
60,1451,60,"0"
61,1451,61,"0"
62,1451,62,"0"
63,1451,63,"0"
64,1451,64,"0"
65,1451,65,"0"
66,1451,66,"0"
67,1451,67,"0"
68,1451,68,"0"
69,1451,69,"0"
70,1451,780,"0"
71,1451,781,"0"
72,1451,782,"0"
73,1451,783,"0"
74,1451,784,"0"
75,1451,786,"0"
76,1451,787,"0"
77,1451,785,"0"
78,1451,788,"0"
79,1451,789,"0"
80,1451,790,"0"
81,1451,791,"0"
82,1451,792,"0"
83,1451,70,"0"
84,1451,71,"0"
85,1451,72,"0"
86,1451,73,"0"
87,1451,74,"1"
88,1451,75,"0"
89,1451,76,"1"
90,1451,77,"0"
91,1451,78,"1"
92,1451,79,"0"
93,1451,104,"0"
94,1451,107,"1"
95,1451,108,"1"
96,1451,109,"0"
97,1451,110,"0"
98,1451,111,"1"
99,1451,112,"0"
100,1451,793,"0"
101,1451,794,"0"
102,1451,795,"0"
103,1451,796,"0"
104,1451,113,"0"
105,1451,114,"0"
106,1451,115,"0"
107,1451,116,"0"
108,1451,117,"0"
109,1451,121,"1"
110,1451,122,"0"
111,1451,123,"0"
112,1451,124,"0"
113,1451,125,"0"
114,1451,126,"0"
115,1451,127,"0"
116,1451,128,"0"
117,1451,129,"0"
118,1451,130,"0"
119,1451,131,"1"
120,1451,132,"1"
121,1451,133,"0"
122,1451,134,"0"
123,1451,135,"0"
124,1451,136,"0"
125,1451,137,"0"
126,1451,138,"0"
127,1451,142,"1"
128,1451,143,"1"
129,1451,144,"1"
130,1451,145,"0"
131,1451,146,"0"
132,1451,148,"0"
133,1451,150,"0"
134,1451,152,"0"
135,1451,154,"0"
136,1451,156,"0"
137,1451,158,"0"
138,1451,159,"0"
139,1451,161,"0"
140,1451,163,"0"
141,1451,165,"0"
142,1451,167,"1"
143,1451,168,"1"
144,1451,170,"1"
145,1451,172,"0"
146,1451,174,"1"
147,1451,176,"1"
148,1451,178,"0"
149,1451,180,"0"
150,1451,182,"0"
151,1451,184,"1"
152,1451,186,"1"
153,1451,188,"0"
154,1451,190,"1"
155,1451,192,"0"
156,1451,194,"0"
157,1451,196,"0"
158,1451,198,"0"
159,1451,200,"0"
160,1451,202,"0"
161,1451,204,"0"
162,1451,206,"0"
163,1451,208,"0"
164,1451,210,"0"
165,1451,212,"0"
166,1451,214,"0"
167,1451,216,"0"
168,1451,218,"0"
169,1451,220,"0"
170,1451,222,"0"
171,1451,224,"1"
172,1451,225,"1"
173,1451,226,"0"
174,1451,227,"0"
175,1451,228,"0"
176,1451,229,"0"
177,1451,230,"0"
178,1451,231,"0"
179,1451,232,"0"
180,1451,234,"0"
181,1451,235,"0"
182,1451,236,"0"
183,1451,238,"0"
184,1451,240,"0"
185,1451,242,"0"
186,1451,244,"0"
187,1451,245,"0"
188,1451,247,"0"
189,1451,249,"0"
190,1451,251,"0"
191,1451,252,"0"
192,1451,253,"0"
193,1451,254,"0"
194,1451,255,"0"
195,1451,256,"1"
196,1451,258,"1"
197,1451,260,"0"
198,1451,262,"0"
199,1451,264,"0"
200,1451,265,"0"
201,1451,267,"0"
202,1451,269,"0"
203,1451,271,"0"
204,1451,273,"0"
205,1451,275,"0"
206,1451,277,"0"
207,1451,279,"0"
208,1451,281,"0"
209,1451,282,"0"
210,1451,283,"0"
211,1451,284,"0"
212,1451,285,"0"
213,1451,286,"0"
214,1451,287,"0"
215,1451,288,"0"
216,1451,289,"1"
217,1451,290,"0"
218,1451,291,"0"
219,1451,292,"0"
220,1451,293,"0"
221,1451,294,"0"
222,1451,295,"0"
223,1451,296,"0"
224,1451,297,"0"
225,1451,298,"0"
226,1451,299,"0"
227,1451,300,"1"
228,1451,301,"1"
229,1451,303,"0"
230,1451,305,"0"
231,1451,307,"0"
232,1451,309,"0"
233,1451,311,"0"
234,1451,313,"0"
235,1451,315,"0"
236,1451,317,"0"
237,1451,319,"0"
238,1451,320,"1"
239,1451,321,"1"
240,1451,322,"0"
241,1451,323,"0"
242,1451,324,"0"
243,1451,325,"1"
244,1451,326,"0"
245,1451,327,"0"
246,1451,328,"0"
247,1451,329,"0"
248,1451,330,"0"
249,1451,331,"0"
250,1451,332,"1"
251,1451,333,"0"
252,1451,334,"0"
253,1451,335,"0"
254,1451,336,"0"
255,1451,337,"1"
256,1451,338,"1"
257,1451,339,"0"
258,1451,340,"0"
259,1451,341,"0"
260,1451,342,"0"
261,1451,343,"1"
262,1451,344,"1"
263,1451,345,"1"
264,1451,346,"1"
265,1451,803,"0"
266,1451,347,"1"
267,1451,348,"0"
268,1451,349,"0"
269,1451,350,"0"
270,1451,351,"0"
271,1451,352,"1"
272,1451,353,"1"
273,1451,354,"0"
274,1451,355,"1"
275,1451,356,"1"
276,1451,357,"1"
277,1451,358,"0"
278,1451,359,"0"
279,1451,360,"0"
280,1451,361,"1"
281,1451,362,"1"
282,1451,363,"0"
283,1451,364,"0"
284,1451,365,"0"
285,1451,366,"0"
286,1451,367,"0"
287,1451,368,"0"
288,1451,369,"0"
289,1451,370,"1"
290,1451,371,"1"
291,1451,372,"0"
292,1451,373,"0"
293,1451,374,"0"
294,1451,375,"0"
295,1451,376,"0"
296,1451,377,"0"
297,1451,378,"0"
298,1451,379,"0"
299,1451,380,"0"
300,1451,381,"0"
301,1451,382,"0"
302,1451,383,"0"
303,1451,384,"0"
304,1451,386,"0"
305,1451,387,"0"
306,1451,388,"0"
307,1451,389,"1"
308,1451,390,"0"
309,1451,391,"0"
310,1451,393,"0"
311,1451,395,"0"
312,1451,397,"0"
313,1451,399,"0"
314,1451,401,"0"
315,1451,403,"0"
316,1451,405,"0"
317,1451,407,"0"
318,1451,409,"0"
319,1451,411,"0"
320,1451,413,"0"
321,1451,415,"0"
322,1451,417,"0"
323,1451,419,"0"
324,1451,421,"0"
325,1451,423,"0"
326,1451,425,"0"
327,1451,427,"0"
328,1451,429,"0"
329,1451,431,"0"
330,1451,433,"0"
331,1451,435,"0"
332,1451,437,"0"
333,1451,439,"0"
334,1451,441,"0"
335,1451,443,"0"
336,1451,445,"0"
337,1451,447,"1"
338,1451,448,"1"
339,1451,450,"1"
340,1451,452,"0"
341,1451,454,"0"
342,1451,456,"0"
343,1451,458,"0"
344,1451,460,"0"
345,1451,462,"0"
346,1451,464,"0"
347,1451,466,"0"
348,1451,468,"0"
349,1451,470,"0"
350,1451,472,"0"
351,1451,473,"0"
352,1451,475,"0"
353,1451,477,"0"
354,1451,479,"0"
355,1451,481,"0"
356,1451,483,"0"
357,1451,485,"0"
358,1451,487,"0"
359,1451,489,"0"
360,1451,491,"0"
361,1451,493,"0"
362,1451,495,"0"
363,1451,497,"0"
364,1451,499,"0"
365,1451,501,"0"
366,1451,503,"0"
367,1451,505,"0"
368,1451,507,"0"
369,1451,509,"0"
370,1451,511,"0"
371,1451,513,"0"
372,1451,515,"0"
373,1451,517,"0"
374,1451,519,"0"
375,1451,521,"0"
376,1451,804,"0"
377,1451,523,"0"
378,1451,524,NULL
379,1451,525,NULL
380,1451,528,NULL
381,1451,532,NULL
382,1451,536,NULL
383,1451,540,NULL
384,1451,546,NULL
385,1451,547,NULL
386,1451,550,NULL
387,1451,555,NULL
388,1451,567,NULL
389,1451,579,NULL
390,1451,591,NULL
391,1451,603,NULL
392,1451,615,NULL
393,1451,627,NULL
394,1451,639,NULL
395,1451,651,NULL
396,1451,805,"0"
397,1451,663,"1"
398,1451,664,"0"
399,1451,665,"0"
400,1451,666,"0"
401,1451,667,"0"
402,1451,668,"0"
403,1451,669,"0"
404,1451,670,"0"
405,1451,671,"0"
406,1451,672,"0"
407,1451,673,"0"
408,1451,674,"0"
409,1451,675,"0"
410,1451,676,"0"
411,1451,677,"0"
412,1451,678,"0"
413,1451,679,"0"
414,1451,680,"0"
415,1451,681,"0"
416,1451,682,"0"
417,1451,683,"0"
418,1451,684,"0"
419,1451,685,"0"
420,1451,686,"0"
421,1451,687,"0"
422,1451,688,"0"
423,1451,689,"0"
424,1451,690,"0"
425,1451,691,"1"
426,1451,692,"1"
427,1451,693,"0"
428,1451,694,"0"
429,1451,695,"1"
430,1451,696,"1"
431,1451,697,"1"
432,1451,698,"0"
433,1451,699,"0"
434,1451,700,"1"
435,1451,701,"1"
436,1451,702,"1"
437,1451,703,"0"
438,1451,704,"1"
439,1451,705,"1"
440,1451,706,"0"
441,1451,707,"0"
442,1451,708,"0"
443,1451,709,"0"
444,1451,710,"0"
445,1451,711,"0"
446,1451,712,"0"
447,1451,713,"0"
448,1451,714,"0"
449,1451,715,"0"
450,1451,716,"0"
451,1451,717,"0"
452,1451,718,"0"
453,1451,719,"0"
454,1451,720,"0"
455,1451,721,"1"
456,1451,722,"1"
457,1451,723,"1"
458,1451,724,"1"
459,1451,725,"0"
460,1451,726,"1"
461,1451,727,"1"
462,1451,728,"0"
463,1451,729,"1"
464,1451,730,"1"
465,1451,731,"0"
466,1451,732,"0"
467,1451,733,"0"
468,1451,734,"0"
469,1451,735,"0"
470,1451,736,"0"
471,1451,737,"0"
472,1451,738,"0"
473,1451,739,"0"
474,1451,740,"0"
475,1451,741,"0"
476,1451,742,"0"
477,1451,743,"0"
478,1451,744,"1"
479,1451,745,"0"
480,1451,746,"0"
481,1451,747,"1"
482,1451,748,"0"
483,1451,749,"0"
484,1451,750,"0"
485,1451,751,"0"
486,1451,752,"0"
487,1451,753,"0"
488,1451,754,"0"
489,1451,755,"0"
490,1451,756,"0"
491,1451,757,"0"
492,1451,758,"0"
493,1451,759,"0"
494,1451,760,"0"
495,1451,761,"0"
496,1451,762,"0"
497,1451,763,"0"
498,1451,764,"0"
499,1451,765,"0"
500,1451,766,"0"
501,1451,767,"0"
502,1451,768,"0"
503,1451,769,"0"
504,1451,770,"0"
505,1451,771,"1"
506,1451,772,"1"
507,1451,773,"1"
508,1451,774,"1"
509,1451,775,"1"
510,1451,776,"0"
511,1451,20,"2"
512,1451,80,"64"
513,1451,81,"8"
514,1451,82,"8"
515,1451,83,"4"
516,1451,84,"6.56"
517,1451,85,"3.5"
518,1451,86,"3.06"
519,1451,87,"6.56"
520,1451,88,"0"
521,1451,89,"28"
522,1451,90,"36"
523,1451,91,"1"
524,1451,92,"144"
525,1451,93,"64"
526,1451,94,"81"
527,1451,95,"28"
528,1451,96,"8"
529,1451,97,"8"
530,1451,98,"8"
531,1451,99,"8"
532,1451,100,"4"
533,1451,101,"4"
534,1451,102,"0"
535,1451,103,"2"
536,1451,105,"1"
537,1451,106,"64"
538,1451,118,"7"
539,1451,119,"3.5"
540,1451,120,"0"
541,1451,139,"17"
542,1451,140,"0"
543,1451,141,"17"
544,1451,800,"8.5"
545,1451,801,"0"
546,1451,802,"8.5"
547,1451,147,0
548,1451,149,0
549,1451,151,0
550,1451,153,0
551,1451,155,"0"
552,1451,157,0
553,1451,160,0
554,1451,162,0
555,1451,164,0
556,1451,166,0
557,1451,169,"0.18"
558,1451,171,"0.18"
559,1451,173,0
560,1451,175,0
561,1451,177,"0.63"
562,1451,179,"0.6"
563,1451,181,"0.03"
564,1451,183,0
565,1451,185,"0.19"
566,1451,187,"0.18"
567,1451,189,0
568,1451,191,"0.01"
569,1451,193,0
570,1451,195,0
571,1451,197,0
572,1451,199,0
573,1451,201,0
574,1451,203,0
575,1451,205,0
576,1451,207,0
577,1451,209,0
578,1451,211,0
579,1451,213,0
580,1451,215,0
581,1451,217,0
582,1451,219,0
583,1451,221,0
584,1451,223,0
585,1451,233,0
586,1451,237,0
587,1451,239,0
588,1451,241,0
589,1451,243,0
590,1451,246,0
591,1451,248,0
592,1451,250,0
593,1451,257,"0"
594,1451,259,"0.04"
595,1451,261,0
596,1451,263,0
597,1451,266,0
598,1451,268,0
599,1451,270,0
600,1451,272,0
601,1451,274,0
602,1451,276,0
603,1451,278,0
604,1451,280,0
605,1451,302,"0.04"
606,1451,304,0
607,1451,306,0
608,1451,308,0
609,1451,310,0
610,1451,312,0
611,1451,314,0
612,1451,316,0
613,1451,318,0
614,1451,385,"1"
615,1451,392,0
616,1451,394,0
617,1451,396,0
618,1451,398,0
619,1451,400,0
620,1451,402,0
621,1451,404,0
622,1451,406,0
623,1451,408,0
624,1451,410,0
625,1451,412,0
626,1451,414,0
627,1451,416,0
628,1451,418,0
629,1451,420,0
630,1451,422,0
631,1451,424,0
632,1451,426,0
633,1451,428,0
634,1451,430,0
635,1451,432,0
636,1451,434,0
637,1451,436,0
638,1451,438,0
639,1451,440,0
640,1451,442,0
641,1451,444,0
642,1451,446,0
643,1451,449,"1"
644,1451,451,"1"
645,1451,453,0
646,1451,455,0
647,1451,457,0
648,1451,459,0
649,1451,461,0
650,1451,463,0
651,1451,465,0
652,1451,467,0
653,1451,469,0
654,1451,471,0
655,1451,474,0
656,1451,476,0
657,1451,478,0
658,1451,480,0
659,1451,482,0
660,1451,484,0
661,1451,486,0
662,1451,488,0
663,1451,490,0
664,1451,492,0
665,1451,494,0
666,1451,496,0
667,1451,498,0
668,1451,500,0
669,1451,502,0
670,1451,504,0
671,1451,506,0
672,1451,508,0
673,1451,510,0
674,1451,512,0
675,1451,514,0
676,1451,516,0
677,1451,518,0
678,1451,520,0
679,1451,522,0
680,1451,526,NULL
681,1451,527,NULL
682,1451,529,NULL
683,1451,530,NULL
684,1451,531,"187.25"
685,1451,798,"109.43"
686,1451,799,"187.25"
687,1451,533,"0.99"
688,1451,534,NULL
689,1451,535,NULL
690,1451,537,"0.91"
691,1451,538,NULL
692,1451,539,NULL
693,1451,541,"0.01"
694,1451,542,"0.02"
695,1451,543,"1"
696,1451,544,"0"
697,1451,545,"0"
698,1451,779,NULL
699,1451,548,NULL
700,1451,549,NULL
701,1451,551,NULL
702,1451,552,NULL
703,1451,553,NULL
704,1451,554,NULL
705,1451,556,NULL
706,1451,557,NULL
707,1451,558,NULL
708,1451,559,NULL
709,1451,560,NULL
710,1451,561,NULL
711,1451,562,NULL
712,1451,563,NULL
713,1451,564,NULL
714,1451,565,NULL
715,1451,566,NULL
716,1451,568,NULL
717,1451,569,NULL
718,1451,570,NULL
719,1451,571,NULL
720,1451,572,NULL
721,1451,573,NULL
722,1451,574,NULL
723,1451,575,NULL
724,1451,576,NULL
725,1451,577,NULL
726,1451,578,NULL
727,1451,580,NULL
728,1451,581,NULL
729,1451,582,NULL
730,1451,583,NULL
731,1451,584,NULL
732,1451,585,NULL
733,1451,586,NULL
734,1451,587,NULL
735,1451,588,NULL
736,1451,589,NULL
737,1451,590,NULL
738,1451,592,"0"
739,1451,593,NULL
740,1451,594,NULL
741,1451,595,NULL
742,1451,596,NULL
743,1451,597,NULL
744,1451,598,NULL
745,1451,599,NULL
746,1451,600,NULL
747,1451,601,NULL
748,1451,602,NULL
749,1451,604,"0"
750,1451,605,NULL
751,1451,606,NULL
752,1451,607,NULL
753,1451,608,NULL
754,1451,609,NULL
755,1451,610,NULL
756,1451,611,NULL
757,1451,612,NULL
758,1451,613,NULL
759,1451,614,NULL
760,1451,616,"0"
761,1451,617,NULL
762,1451,618,NULL
763,1451,619,NULL
764,1451,620,NULL
765,1451,621,NULL
766,1451,622,NULL
767,1451,623,NULL
768,1451,624,NULL
769,1451,625,NULL
770,1451,626,NULL
771,1451,628,NULL
772,1451,629,NULL
773,1451,630,NULL
774,1451,631,NULL
775,1451,632,NULL
776,1451,633,NULL
777,1451,634,NULL
778,1451,635,NULL
779,1451,636,NULL
780,1451,637,NULL
781,1451,638,NULL
782,1451,640,"0"
783,1451,641,NULL
784,1451,642,NULL
785,1451,643,NULL
786,1451,644,NULL
787,1451,645,NULL
788,1451,646,NULL
789,1451,647,NULL
790,1451,648,NULL
791,1451,649,NULL
792,1451,650,NULL
793,1451,652,NULL
794,1451,653,NULL
795,1451,654,NULL
796,1451,655,NULL
797,1451,656,NULL
798,1451,657,NULL
799,1451,658,NULL
800,1451,659,NULL
801,1451,660,NULL
802,1451,661,NULL
803,1451,662,NULL
804,1451,806,"0"
805,1451,807,"0"
806,1451,808,"0"
807,1451,809,"0"
808,1451,777,"164.1"
809,1451,778,"35219.1"
